# Time, total energy, potential energy, kinetic energy, temperature, pressure & MSD/6
1e-14 -0.0752309408114764 -43.8568313016951 6.24136089595684 96.5706576252775 36646176.9671709 1.01269593516888e-24
2e-14 -0.0752306673983048 -43.7134846433545 6.09815094420207 94.3548140857055 35805297.5992566 5.03258718078293e-24
3e-14 -0.075230179347084 -43.4775726557301 5.86248298218809 90.7083961886661 34421536.8131167 1.39615357343502e-23
4e-14 -0.0752293468054292 -43.1546192761872 5.53994587347263 85.7178787011442 32527710.5114478 2.95480220441012e-23
5e-14 -0.0752280092796178 -42.7534068661291 5.1394022263202 79.5203900351396 30175856.8939598 5.33286009111263e-23
6e-14 -0.0752260124805637 -42.2870390873465 4.67403284706463 72.3198727533253 27443369.1168605 8.65734965418017e-23
7e-14 -0.0752232700987106 -41.773896730942 4.16226168158672 64.4013949040677 24438426.2219065 1.30239385036857e-22
8e-14 -0.0752198438638508 -41.2380284220427 3.62810649011732 56.1365759048056 21302052.1749745 1.84933538157393e-22
9e-14 -0.0752160134905978 -40.7084042477609 3.10039750246205 47.9714970346426 18203528.0832007 2.50894234250507e-22
1e-13 -0.0752122802592161 -40.2165703244853 2.61043019487723 40.3903835728327 15326610.1202125 3.27992110800588e-22
1.1e-13 -0.0752092612575657 -39.7927337799449 2.18810315116202 33.8558471112514 12846852.3902356 4.15755416236579e-22
1.2e-13 -0.075207488517081 -39.4610951712201 1.85735091267961 28.7382194473921 10904790.2081915 5.13418838542232e-22
1.3e-13 -0.0752072119216473 -39.2358839916973 1.63227803087367 25.2557359679162 9583240.5959549 6.19991458531519e-22
1.4e-13 -0.0752083264910211 -39.1194922371897 1.51532899167914 23.4462194518987 8896556.714288 7.34335788419828e-22
1.5e-13 -0.075210446354288 -39.1032521295087 1.49802895236472 23.1785412641787 8794977.21607452 8.55248176927732e-22
1.6e-13 -0.0752130746649936 -39.1703198444242 1.56378251192739 24.1959258689181 9181059.65861695 9.81531617637446e-22
1.7e-13 -0.075215759977149 -39.2994617197567 1.69158173118214 26.1733238840567 9931452.71146432 1.11205462960692e-21
1.8e-13 -0.0752181842387478 -39.4685842914903 1.85949217211643 28.7713504961179 10917364.9665096 1.24579321290273e-21
1.9e-13 -0.0752201764114843 -39.6573186252284 2.04723041948621 31.676166659154 12019699.2455463 1.38185583204123e-21
2e-13 -0.0752216849414071 -39.8485069933397 2.23766452263618 34.622694969572 13137862.6704188 1.5194933696017e-21
2.1e-13 -0.0752227255014031 -40.0287801260291 2.41741737532749 37.4039555766399 14193309.498999 1.65809696626481e-21
2.2e-13 -0.075223347663211 -40.1885535950104 2.57687976340486 39.8712680650277 15129617.7383223 1.79718687378987e-21
2.3e-13 -0.0752236131077864 -40.3217264142202 2.709919860327 41.9297565684924 15910783.4063349 1.93639522444059e-21
2.4e-13 -0.0752235780475907 -40.4252719690416 2.81348294524626 43.5321563308318 16518870.2186566 2.07544523132598e-21
2.5e-13 -0.075223292729494 -40.4988141865714 2.88716782182443 44.6722597644917 16951522.4703185 2.21412893745928e-21
2.6e-13 -0.075222809682342 -40.5442117156168 2.9328068744458 45.3784187895043 17219499.2738021 2.35228528308307e-21
2.7e-13 -0.0752221856876635 -40.5651216636932 2.95402881986151 45.7067794241553 17344107.1895581 2.48977995423213e-21
2.8e-13 -0.0752214765893024 -40.5665256024064 2.95578730775519 45.733987966515 17354432.3323376 2.62648816954385e-21
2.9e-13 -0.0752207354618274 -40.5542457573615 2.94387802644782 45.5497193195212 17284504.9822451 2.76228122917301e-21
3e-13 -0.0752200076241669 -40.5344809807332 2.92447716864978 45.2495358135066 17170589.6142672 2.89701730435143e-21
3.1e-13 -0.0752193271086701 -40.5133993668415 2.90373581250646 44.9286111888629 17048803.2434163 3.03053662658242e-21
3.2e-13 -0.0752187263262541 -40.4968086279679 2.88744546484082 44.6765556494959 16953151.609059 3.16266098025519e-21
3.3e-13 -0.0752182420336777 -40.4898461262435 2.88072510940465 44.5725736566635 16913691.6296626 3.29319721778257e-21
3.4e-13 -0.0752179211823159 -40.4966380054353 2.88767741427734 44.6801445317916 16954512.771306 3.42194434536957e-21
3.5e-13 -0.0752178053045914 -40.5199271879013 2.91102453560562 45.0413873597443 17091598.6118579 3.54870350362372e-21
3.6e-13 -0.0752179206263465 -40.5607456219369 2.95178530876364 45.6720662669254 17330931.4179267 3.67328987935335e-21
3.7e-13 -0.0752182496808504 -40.6182425762471 3.00911773582195 46.559153278327 17667567.2843798 3.79554529891638e-21
3.8e-13 -0.0752187458492105 -40.6897929415417 3.08042001693643 47.6623915451397 18086229.354945 3.91535009376567e-21
3.9e-13 -0.0752193357124713 -40.7713756796628 3.16170782342712 48.9201327750705 18563523.0383536 4.03263289931834e-21
4e-13 -0.0752199395950943 -40.8581540173419 3.24818421979477 50.2581554604271 19071282.3929736 4.14737736202009e-21
4.1e-13 -0.0752204896911498 -40.9451075398259 3.334862694251 51.5993048378996 19580228.3467453 4.25962521248841e-21
4.2e-13 -0.0752209447371411 -41.0275747082606 3.41710233969005 52.8717735791421 20063111.0947083 4.3694756841699e-21
4.3e-13 -0.0752212943166351 -41.1016009430058 3.49095378468821 54.0144542747369 20496741.2860903 4.47708168542579e-21
4.39999999999999e-13 -0.0752215532890489 -41.1640597171349 3.55328307261042 54.9788561775113 20862717.4004439 4.58264337661525e-21
4.49999999999999e-13 -0.0752217381390334 -41.2126008885053 3.60173181898859 55.7284887299072 21147191.8070835 4.68639984240615e-21
4.59999999999999e-13 -0.0752218661422024 -41.2455525685126 3.63461949741142 56.2373496636051 21340297.0228969 4.78861944293725e-21
4.69999999999999e-13 -0.0752219368801175 -41.2618394949963 3.65087105493749 56.4888050150724 21435720.6961528 4.8895892809816e-21
4.79999999999999e-13 -0.0752219409987906 -41.2609806394659 3.65001014007063 56.4754843441101 21430665.8448469 4.98960411608621e-21
4.89999999999999e-13 -0.0752218650952059 -41.2431537325355 3.63222118493251 56.200241312215 21326215.3826796 5.08895503352627e-21
4.99999999999999e-13 -0.075221689492214 -41.2092972133017 3.59845246719471 55.6777483281585 21127937.2630371 5.1879182324188e-21
5.09999999999999e-13 -0.0752214126580669 -41.1612113842136 3.5505050551801 54.9358727681857 20846406.7335841 5.28674440336992e-21
5.19999999999999e-13 -0.0752210445192666 -41.1015708018546 3.49104854222131 54.0159204289041 20497298.7224652 5.38564927352727e-21
5.29999999999999e-13 -0.0752206066893029 -41.0338219480519 3.42351860340043 52.9710504542241 20100786.3268988 5.48480594395934e-21
5.39999999999999e-13 -0.0752201377529385 -40.9619785607418 3.35190968427257 51.8630676717363 19680323.5521256 5.58433958848736e-21
5.49999999999999e-13 -0.075219668060042 -40.8903287944589 3.28049476443787 50.7580865806474 19260999.8590724 5.68432492870526e-21
5.59999999999999e-13 -0.0752192297806532 -40.8231425332507 3.21352764292408 49.7219249050667 18867792.0870283 5.78478668321286e-21
5.69999999999999e-13 -0.0752188481848451 -40.7643977226707 3.15497363024819 48.8159366751003 18523983.170223 5.88570297423112e-21
5.79999999999999e-13 -0.0752185549613228 -40.7175295428036 3.10825206214222 48.09302822092 18249650.2683026 5.9870114938927e-21
5.89999999999999e-13 -0.0752183842021933 -40.685173992417 3.07598189132031 47.5937217924181 18060170.9694171 6.08861806797965e-21
5.99999999999999e-13 -0.0752183615032185 -40.6689022269259 3.05972147531663 47.342129376451 17964695.4147151 6.19040707385123e-21
6.09999999999999e-13 -0.0752185015477905 -40.6690038246588 3.05975305076355 47.3426179336302 17964880.8056368 6.29225295604236e-21
6.19999999999999e-13 -0.0752187886241508 -40.6843926169824 3.074998304907 47.5785030623449 18054395.6679566 6.39403188142586e-21
6.29999999999999e-13 -0.0752191828085608 -40.7127340291427 3.10314262486224 48.0139714692839 18219649.3993949 6.4956324736388e-21
6.39999999999999e-13 -0.0752196162113351 -40.7507897703326 3.14098166466499 48.5994432948321 18441827.1908118 6.59696465613507e-21
6.49999999999999e-13 -0.0752200229675207 -40.7949192219419 3.18490773818153 49.2790979209787 18699745.9574197 6.69796593588746e-21
6.59999999999999e-13 -0.075220364448427 -40.8415775849613 3.23139536074774 49.998386607772 18972705.2716636 6.79860490161738e-21
6.69999999999999e-13 -0.0752206259546171 -40.8876622713239 3.27734929401539 50.7094176841835 19242530.9616764 6.89888214335999e-21
6.79999999999999e-13 -0.0752208242754 -40.9306545952758 3.3202424575758 51.3730904122483 19494384.8801543 6.99882908167847e-21
6.89999999999999e-13 -0.0752209771193022 -40.9685487351326 3.35806017548152 51.9582323306412 19716437.5402318 7.09850526098165e-21
6.99999999999999e-13 -0.0752211031609744 -40.999730228389 3.38917864790179 52.4397188839771 19899154.543458 7.19799454059155e-21
7.09999999999999e-13 -0.0752212047304954 -41.0228757920415 3.41227342679382 52.7970572950212 20034759.1812922 7.29740043936684e-21
7.19999999999999e-13 -0.0752212690751623 -41.0369518335683 3.42631729598712 53.0143537638857 20117219.989041 7.39684076015508e-21
7.29999999999999e-13 -0.0752212771871704 -41.0413129371862 3.43067434360101 53.0817690216143 20142803.1070281 7.49644160370605e-21
7.39999999999999e-13 -0.075221214397352 -41.0358329469598 3.42522574828376 52.9974645819749 20110810.854258 7.59633097412242e-21
7.49999999999999e-13 -0.075221083409587 -41.0209860265713 3.41044432177784 52.7687561156465 20024019.417511 7.69663231246991e-21
7.59999999999999e-13 -0.0752209018898477 -40.9978323079047 3.38738136298083 52.4119100471464 19888601.6624322 7.79745838734101e-21
7.69999999999999e-13 -0.0752206908817026 -40.9678908517742 3.35754541092295 51.9502675369413 19713415.2120148 7.89890596905406e-21
7.79999999999999e-13 -0.0752204762870373 -40.9329471274413 3.32270898392267 51.4112542158383 19508867.685482 8.00105160462996e-21
7.89999999999999e-13 -0.0752202767260872 -40.8948559091242 3.28471754608053 50.8234243822965 19285795.0152079 8.1039486393191e-21
7.99999999999999e-13 -0.0752200934428689 -40.855402782625 3.24535606119057 50.2143962321388 19054677.8968278 8.20762547072818e-21
8.09999999999999e-13 -0.0752199294774197 -40.8162496446548 3.20628490594496 49.6098602632779 18825265.493544 8.31208492902184e-21
8.19999999999999e-13 -0.075219774732416 -40.7789088814889 3.16902151528087 49.0332952798125 18606467.6640126 8.41730466152774e-21
8.29999999999999e-13 -0.0752196402782924 -40.7447638924669 3.13494375332071 48.5060205495493 18406374.7549891 8.5232384283202e-21
8.39999999999999e-13 -0.075219526526976 -40.7150332180085 3.1052699545205 48.0468869868302 18232140.4093937 8.62981825750972e-21
8.49999999999999e-13 -0.0752194490368337 -40.690725913063 3.08100139464618 47.6713870236412 18089643.7754834 8.73695741197882e-21
8.59999999999999e-13 -0.0752194196208941 -40.6725374700191 3.06282765957209 47.3901904101351 17982933.8651583 8.84455407367928e-21
8.69999999999999e-13 -0.075219440829299 -40.6607620975061 3.05104168285663 47.2078296171699 17913730.6837315 8.95249555236265e-21
8.79999999999999e-13 -0.0752195035370802 -40.6552672210323 3.04551545249218 47.1223239543217 17881282.5880151 9.06066272147532e-21
8.89999999999999e-13 -0.0752195860247573 -40.6555666710395 3.04577365866089 47.1263190989594 17882798.7201485 9.1689343329597e-21
8.99999999999999e-13 -0.0752196589311333 -40.6609834694882 3.05115400392158 47.2095675264638 17914390.2940025 9.2771909120516e-21
9.09999999999999e-13 -0.0752197028540958 -40.6708484807322 3.06099705368429 47.3618660082323 17972185.3323425 9.38531808183049e-21
9.2e-13 -0.0752197177357204 -40.6846409608579 3.07478209299775 47.5751576819685 18053126.3712882 9.49320935858582e-21
9.29999999999999e-13 -0.0752197305667116 -40.7019890103754 3.09212372701965 47.8434794518051 18154950.5005985 9.60076860029642e-21
9.4e-13 -0.0752197693740047 -40.7225136854916 3.11262899848925 48.1607512108997 18275350.4072382 9.70791229563896e-21
9.5e-13 -0.0752198627511627 -40.7456097008425 3.13567832526112 48.5173863552673 18410688.1165561 9.81457173380326e-21
9.6e-13 -0.0752200139134354 -40.7702568583229 3.16024990160527 48.8975747991019 18554963.9374889 9.92069486368683e-21
9.7e-13 -0.0752202024299788 -40.79501006839 3.18490885340062 49.2791151764207 18699752.7851436 1.00262474549835e-20
9.8e-13 -0.0752203795236209 -40.8181856485137 3.20799588670324 49.636333742342 18835311.8596296 1.01312131409846e-20
9.9e-13 -0.0752204960099185 -40.8382079476532 3.2279599426939 49.9452314407807 18952533.8810149 1.02355920946845e-20
1e-12 -0.0752205259697787 -40.8539700261324 3.24370704124303 50.1888814536431 19044995.3778514 1.03393984142286e-20
1.01e-12 -0.0752204706378295 -40.8650492009587 3.25481388204393 50.3607341854692 19110210.8788699 1.04426566351583e-20
1.02e-12 -0.0752203597084026 -40.8717002231408 3.26152036893949 50.4645015946378 19149589.0180897 1.0545397991403e-20
1.03e-12 -0.0752202389597814 -40.8746365814043 3.2645171015136 50.5108691161179 19167184.7587358 1.06476570272372e-20
1.04e-12 -0.0752201440746278 -40.8747145478249 3.26464251051107 50.5128095309665 19167921.0772628 1.07494689356863e-20
1.05e-12 -0.0752200787062118 -40.8726900941948 3.26265074108885 50.4819914952611 19156226.0535859 1.08508676853019e-20
1.06e-12 -0.075220027630466 -40.8691591654636 3.25914535023064 50.427753660588 19135643.5650861 1.09518847613922e-20
1.07e-12 -0.0752199626993782 -40.864652224401 3.25467087471195 50.358521477003 19109370.9427163 1.10525482960278e-20
1.08e-12 -0.0752198695846735 -40.8598141411818 3.24987934884501 50.284383670888 19081236.7057281 1.11528824849838e-20
1.09e-12 -0.0752197509294589 -40.8554983231349 3.24562285840544 50.2185243033915 19056244.0067759 1.12529073944637e-20
1.1e-12 -0.0752196406866188 -40.8527010731419 3.24288072983254 50.1760961913191 19040143.112489 1.13526393922939e-20
1.11e-12 -0.0752195895731251 -40.852308128394 3.24251334183146 50.1704117097678 19037985.8704336 1.14520923978786e-20
1.12e-12 -0.0752196328189308 -40.8547510824134 3.24493467294798 50.2078762214582 19052203.0217047 1.15512799168383e-20
1.13e-12 -0.075219779586993 -40.8597504828348 3.24986068933828 50.284094958079 19081126.8202723 1.16502175019162e-20
1.14e-12 -0.0752200056033117 -40.8662454867325 3.25624268507669 50.3828416153696 19118599.6312017 1.17489250218586e-20
1.15e-12 -0.0752202610024287 -40.8725786004421 3.26244809922781 50.4788560800674 19155035.6259026 1.18474280467921e-20
1.16e-12 -0.0752204917876913 -40.8768631393958 3.26661724555017 50.5433639989009 19179515.3751383 1.19457578234928e-20
1.17e-12 -0.0752206556545321 -40.8773939398396 3.26706611257361 50.5503091803063 19182150.9514867 1.20439496436428e-20
1.18e-12 -0.0752207203782217 -40.8730011475479 3.26264095843708 50.481840131299 19156167.9859933 1.21420397732547e-20
1.19e-12 -0.0752206762211982 -40.8632784851688 3.25294037456966 50.3317459805133 19099209.5486913 1.22400614133895e-20
1.2e-12 -0.0752205386838364 -40.8486565941725 3.2383872522543 50.1065699947109 19013758.7111196 1.23380403406444e-20
1.21e-12 -0.0752203313760694 -40.8303198931363 3.22015420510167 49.8244556636549 18906700.6526574 1.24359909179328e-20
1.22e-12 -0.0752200857165053 -40.810012360472 3.19996950221933 49.5121439637207 18788183.1671186 1.25339130776546e-20
1.23e-12 -0.0752198313814815 -40.7897794996612 3.17986380892042 49.2010547547719 18670129.6122343 1.26317906903191e-20
1.24e-12 -0.0752195804849172 -40.7717434327955 3.16195319033696 48.9239292618044 18564964.7820504 1.27295915060639e-20
1.25e-12 -0.0752193517050229 -40.7579608208534 3.14828496834199 48.71244506651 18484709.8331211 1.28272686898559e-20
1.26e-12 -0.0752191687862172 -40.7502775873382 3.14069319422955 48.594979880503 18440133.6721318 1.29247638959338e-20
1.27e-12 -0.0752190624878383 -40.7501463923614 3.14061514844228 48.5937723020394 18439675.5059156 1.30220117651819e-20
1.28e-12 -0.0752190638243936 -40.7583821415349 3.14885022933813 48.7211911760585 18488029.1200398 1.31189455949519e-20
1.29e-12 -0.0752191778165514 -40.7749557357513 3.16536682747559 48.9767474193932 18585008.9112599 1.32155037075697e-20
1.3e-12 -0.0752193838257541 -40.7989531852194 3.18926127234238 49.346458816129 18725308.8369476 1.33116358443957e-20
1.31e-12 -0.0752196444552954 -40.828724489388 3.21890226174031 49.8050847290572 18899350.4547277 1.34073088628034e-20
1.32e-12 -0.0752199275289788 -40.862164718773 3.25220095428362 50.3203051578345 19094868.8123061 1.35025111532454e-20
1.33e-12 -0.075220209225784 -40.8969688011453 3.2868641882533 50.8566387164402 19298399.2620837 1.35972554595484e-20
1.34e-12 -0.0752204933426535 -40.9307835933642 3.32053692203745 51.3776465703015 19496113.8216398 1.36915800278308e-20
1.35e-12 -0.0752207860231119 -40.9612108182847 3.35081780672874 51.8461733863053 19673912.6092125 1.37855481066105e-20
1.36e-12 -0.0752210608546135 -40.9858165120934 3.3752860847867 52.2247635275269 19817581.7817891 1.38792457510055e-20
1.37e-12 -0.0752212691052807 -41.002342983231 3.39170843059061 52.4788614334918 19914008.0300227 1.39727778121463e-20
1.38e-12 -0.0752213578654419 -41.0090943899427 3.39841545722175 52.582637193823 19953389.2964309 1.40662621243645e-20
1.39e-12 -0.0752212936820183 -41.0053421094278 3.39469526841861 52.5250758566085 19931545.5765179 1.41598222460509e-20
1.4e-12 -0.075221082091533 -40.9915623198057 3.38102127403915 52.3135023469842 19851256.5717886 1.42535794905537e-20
1.41e-12 -0.0752207518370002 -40.9694133004551 3.35903738195497 51.973352345867 19722174.7415938 1.43476452056703e-20
1.42e-12 -0.0752203461187887 -40.9415335966542 3.33136053725981 51.5451170398562 19559665.8807963 1.4442114257984e-20
1.43e-12 -0.0752199123100679 -40.911201910032 3.30124575499801 51.0791602756595 19382842.3083467 1.45370605181893e-20
1.44e-12 -0.0752195110148282 -40.8819135058636 3.27215799844946 50.6290943644642 19212049.0865105 1.46325348813352e-20
1.45e-12 -0.0752191978016205 -40.8568976319446 3.24729873113432 50.2444545667142 19066084.0993114 1.47285660202459e-20
1.46e-12 -0.075219011841321 -40.8386801070095 3.22917418634896 49.9640190594173 18959663.0801311 1.48251636766588e-20
1.47e-12 -0.0752189609187355 -40.8287850655106 3.21930460614288 49.8113100802579 18901712.3628586 1.49223239128778e-20
1.48e-12 -0.0752190137684485 -40.8276656911154 3.21815880689117 49.7935814808244 18894984.6738381 1.50200354881501e-20
1.49e-12 -0.075219136617891 -40.8348851172939 3.22531680834842 49.9043350359437 18937014.0334813 1.51182864891872e-20
1.5e-12 -0.075219300224897 -40.8493830157111 3.23973290326261 50.1273908389102 19021660.4105036 1.52170705329661e-20
1.51e-12 -0.0752194877768723 -40.8697146338323 3.2599707453962 50.4405247461361 19140490.0768487 1.5316392133954e-20
1.52e-12 -0.0752197094979645 -40.8941619517485 3.28430720276624 50.8170752663946 19283385.3981992 1.5416271044234e-20
1.53e-12 -0.0752199778615243 -40.9207104646161 3.31072153385391 51.2257760876403 19438481.2800569 1.55167454428095e-20
1.54e-12 -0.0752202932930033 -40.946994795869 3.3368481493674 51.630025174293 19591887.8001201 1.56178737861286e-20
1.55e-12 -0.0752206459073157 -40.9702882481819 3.35996529452408 51.9877096516713 19727623.7556428 1.57197350250807e-20
1.56e-12 -0.0752210008480909 -40.9876210754616 3.37712065141613 52.2531492127669 19828354.1573513 1.58224268350436e-20
1.57e-12 -0.0752213058417354 -40.9960741721258 3.38542125125808 52.3815818412888 19877092.4930121 1.59260615810801e-20
1.58e-12 -0.0752215095966345 -40.9931779204597 3.38242312214238 52.3351927115501 19859488.6042988 1.60307599760657e-20
1.59e-12 -0.0752215661008174 -40.9773261572454 3.36654310683674 52.0894861185923 19766246.7378636 1.61366427310355e-20
1.6e-12 -0.0752214584482221 -40.9481120262528 3.33738280214177 51.6382976922395 19595027.6049463 1.62438208611978e-20
1.61e-12 -0.0752211893391454 -40.9064691271487 3.29587445757602 50.9960518425807 19351305.0487377 1.63523855994112e-20
1.62e-12 -0.0752207931847349 -40.8546325476481 3.24423595528068 50.1970651778813 19048101.7011983 1.64623989977366e-20
1.63e-12 -0.0752203173817163 -40.7958886619178 3.1857299710596 49.2918200774251 18704574.8598222 1.65738862507285e-20
1.64e-12 -0.075219816989874 -40.7341922386486 3.12428374371164 48.3410814993325 18343783.9056918 1.66868305546674e-20
